t,L,a_w,a_b,temp
0,0.5,0.5,0,-38.3358
5000,0.5,0,0,-20.8369
10000,0.51,0,0,-19.5854
15000,0.52,0,0,-18.3522
20000,0.53,0,0,-17.1367
25000,0.54,0,0,-15.9382
30000,0.55,0,0,-14.7563
35000,0.56,0,0,-13.5904
40000,0.57,0,0,-12.44
45000,0.58,0,0,-11.3046
50000,0.59,0,0,-10.1838
55000,0.6,0,0,-9.07722
60000,0.61,0,0,-7.98435
65000,0.62,0,0,-6.90483
70000,0.63,0,0,-5.83829
75000,0.64,0,0,-4.78438
80000,0.65,0,0,-3.74274
85000,0.66,0,0,-2.71306
90000,0.67,0,0,-1.69501
95000,0.68,0,0,-0.688303
100000,0.69,0,0,0.307369
105000,0.7,0,0,1.29228
110000,0.71,0,0,2.26669
115000,0.72,0,0,3.23086
120000,0.73,0,0,4.18504
125000,0.74,0,0,5.12947
130000,0.75,0,0,6.06437
135000,0.76,0,0,6.98997
140000,0.77,0,0,7.90648
145000,0.78,0,0,8.8141
150000,0.79,0,0,9.71304
155000,0.8,0,0,10.6035
160000,0.81,0,0,11.4856
165000,0.82,0.00201878,0,12.2876
170000,0.83,0.0106607,0,12.8435
175000,0.84,0.0353616,0,12.8065
180000,0.85,0.0597395,0,12.7599
185000,0.86,0.0831178,0,12.7295
190000,0.87,0.105804,0,12.7049
195000,0.88,0.127823,0,12.686
200000,0.89,0.149201,0,12.6728
205000,0.9,0.169959,0,12.6652
210000,0.91,0.190119,0,12.6633
215000,0.92,0.209699,0,12.667
220000,0.93,0.228719,0,12.6763
225000,0.94,0.247197,0,12.6912
230000,0.95,0.265148,0,12.7117
235000,0.96,0.28259,0,12.7379
240000,0.97,0.299538,0,12.7697
245000,0.98,0.316005,0,12.8073
250000,0.99,0.332006,0,12.8505
255000,1,0.347552,0,12.8996
260000,1.01,0.362656,0,12.9545
265000,1.02,0.37733,0,13.0152
270000,1.03,0.391585,0,13.0819
275000,1.04,0.40543,0,13.1546
280000,1.05,0.418877,0,13.2334
285000,1.06,0.431934,0,13.3183
290000,1.07,0.444609,0,13.4095
295000,1.08,0.456913,0,13.5069
300000,1.09,0.468852,0,13.6108
305000,1.1,0.480434,0,13.7211
310000,1.11,0.491666,0,13.838
315000,1.12,0.502555,0,13.9616
320000,1.13,0.513109,0,14.0919
325000,1.14,0.523333,0,14.2291
330000,1.15,0.533233,0,14.3732
335000,1.16,0.542815,0,14.5244
340000,1.17,0.552084,0,14.6828
345000,1.18,0.561046,0,14.8484
350000,1.19,0.569705,0,15.0214
355000,1.2,0.578066,0,15.2018
360000,1.21,0.586133,0,15.3899
365000,1.22,0.593912,0,15.5856
370000,1.23,0.601404,0,15.7892
375000,1.24,0.608616,0,16.0006
380000,1.25,0.615549,0,16.2201
385000,1.26,0.622207,0,16.4477
390000,1.27,0.628594,0,16.6837
395000,1.28,0.634712,0,16.928
400000,1.29,0.640564,0,17.1808
405000,1.3,0.646151,0,17.4424
410000,1.31,0.651475,0,17.7128
415000,1.32,0.656539,0,17.9922
420000,1.33,0.661342,0,18.2808
425000,1.34,0.665886,0,18.5788
430000,1.35,0.670171,0,18.8865
435000,1.36,0.674194,0,19.2041
440000,1.37,0.677956,0,19.5319
445000,1.38,0.681452,0,19.8703
450000,1.39,0.684681,0,20.2197
455000,1.4,0.687635,0,20.5805
460000,1.41,0.69031,0,20.9534
465000,1.42,0.692695,0,21.339
470000,1.43,0.69478,0,21.7383
475000,1.44,0.696549,0,22.1521
480000,1.45,0.697984,0,22.5818
485000,1.46,0.69906,0,23.0289
490000,1.47,0.699745,0,23.4955
495000,1.48,0.699996,0,23.9841
500000,1.49,0.699762,0,24.4978
505000,1.5,0.698947,0,25.0425
510000,1.51,0.697438,0,25.6245
515000,1.52,0.695054,0,26.2544
520000,1.53,0.69149,0,26.9499
525000,1.54,0.686168,0,27.7438
530000,1.55,0.677707,0,28.7147
535000,1.56,0.659744,0,30.2213
540000,1.57,0,0,62.6711
545000,1.58,0,0,63.2044
550000,1.59,0,0,63.7351
555000,1.6,0,0,64.2633
560000,1.61,0,0,64.789
565000,1.62,0,0,65.3123
570000,1.63,0,0,65.8332
575000,1.64,0,0,66.3517
580000,1.65,0,0,66.8678
585000,1.66,0,0,67.3816
590000,1.67,0,0,67.8931
595000,1.68,0,0,68.4023
600000,1.69,0,0,68.9092
605000,1.7,0,0,69.4138
610000,1.69,0,0,68.9092
615000,1.68,0,0,68.4023
620000,1.67,0,0,67.8931
625000,1.66,0,0,67.3816
630000,1.65,0,0,66.8678
635000,1.64,0,0,66.3517
640000,1.63,0,0,65.8332
645000,1.62,0,0,65.3123
650000,1.61,0,0,64.789
655000,1.6,0,0,64.2633
660000,1.59,0,0,63.7351
665000,1.58,0,0,63.2044
670000,1.57,0,0,62.6711
675000,1.56,0,0,62.1353
680000,1.55,0,0,61.597
685000,1.54,0,0,61.056
690000,1.53,0,0,60.5124
695000,1.52,0,0,59.9661
700000,1.51,0,0,59.4171
705000,1.5,0,0,58.8653
710000,1.49,0,0,58.3108
715000,1.48,0,0,57.7535
720000,1.47,0,0,57.1934
725000,1.46,0,0,56.6304
730000,1.45,0,0,56.0645
735000,1.44,0,0,55.4957
740000,1.43,0,0,54.9239
745000,1.42,0,0,54.3491
750000,1.41,0,0,53.7713
755000,1.4,0,0,53.1903
760000,1.39,0,0,52.6063
765000,1.38,0,0,52.0191
770000,1.37,0,0,51.4287
775000,1.36,0,0,50.835
780000,1.35,0,0,50.2381
785000,1.34,0,0,49.6378
790000,1.33,0,0,49.0342
795000,1.32,0,0,48.4272
800000,1.31,0,0,47.8167
805000,1.3,0,0,47.2026
810000,1.29,0,0,46.5851
815000,1.28,0,0,45.9639
820000,1.27,0,0,45.3391
825000,1.26,0,0,44.7106
830000,1.25,0,0,44.0783
835000,1.24,0,0,43.4423
840000,1.23,0.0032813,0,42.6727
845000,1.22,0.593912,0,15.5856
850000,1.21,0.586139,0,15.3896
855000,1.2,0.578071,0,15.2016
860000,1.19,0.56971,0,15.0211
865000,1.18,0.561051,0,14.8481
870000,1.17,0.552089,0,14.6825
875000,1.16,0.54282,0,14.5242
880000,1.15,0.533238,0,14.373
885000,1.14,0.523338,0,14.2289
890000,1.13,0.513114,0,14.0917
895000,1.12,0.50256,0,13.9614
900000,1.11,0.491669,0,13.8379
905000,1.1,0.480437,0,13.721
910000,1.09,0.468855,0,13.6106
915000,1.08,0.456916,0,13.5068
920000,1.07,0.444612,0,13.4093
925000,1.06,0.431937,0,13.3182
930000,1.05,0.41888,0,13.2333
935000,1.04,0.405434,0,13.1545
940000,1.03,0.391588,0,13.0818
945000,1.02,0.377333,0,13.0151
950000,1.01,0.36266,0,12.9543
955000,1,0.347555,0,12.8995
960000,0.99,0.332009,0,12.8504
965000,0.98,0.316009,0,12.8071
970000,0.97,0.299542,0,12.7696
975000,0.96,0.282594,0,12.7378
980000,0.95,0.265152,0,12.7116
985000,0.94,0.247199,0,12.6911
990000,0.93,0.228721,0,12.6762
995000,0.92,0.209702,0,12.6669
1000000,0.91,0.190121,0,12.6632
1005000,0.9,0.169962,0,12.6651
1010000,0.89,0.149204,0,12.6727
1015000,0.88,0.127827,0,12.6859
1020000,0.87,0.105806,0,12.7048
1025000,0.86,0.0831207,0,12.7294
1030000,0.85,0.0597445,0,12.7597
1035000,0.84,0.0356996,0,12.7942
1040000,0.83,0.0123124,0,12.7841
1045000,0.82,0.00201878,0,12.2876
1050000,0.81,0,0,11.4856
1055000,0.8,0,0,10.6035
1060000,0.79,0,0,9.71304
1065000,0.78,0,0,8.8141
1070000,0.77,0,0,7.90648
1075000,0.76,0,0,6.98997
1080000,0.75,0,0,6.06437
1085000,0.74,0,0,5.12947
1090000,0.73,0,0,4.18504
1095000,0.72,0,0,3.23086
1100000,0.71,0,0,2.26669
1105000,0.7,0,0,1.29228
1110000,0.69,0,0,0.307369
1115000,0.68,0,0,-0.688303
1120000,0.67,0,0,-1.69501
1125000,0.66,0,0,-2.71306
1130000,0.65,0,0,-3.74274
1135000,0.64,0,0,-4.78438
1140000,0.63,0,0,-5.83829
1145000,0.62,0,0,-6.90483
1150000,0.61,0,0,-7.98435
1155000,0.6,0,0,-9.07722
1160000,0.59,0,0,-10.1838
1165000,0.58,0,0,-11.3046
1170000,0.57,0,0,-12.44
1175000,0.56,0,0,-13.5904
1180000,0.55,0,0,-14.7563
1185000,0.54,0,0,-15.9382
1190000,0.53,0,0,-17.1367
1195000,0.52,0,0,-18.3522
1200000,0.51,0,0,-19.5854
1205000,0.5,0,0,-20.8369
