t,L,a_w,a_b,a_g,temp
0,0.5,0.33,0.33,0.33,-20.8369
50000,0.5,0,0,0,-20.8369
100000,0.51,0,0,0,-19.5854
150000,0.52,0,0,0,-18.3522
200000,0.53,0,0,0,-17.1367
250000,0.54,0,0,0,-15.9382
300000,0.55,0,0,0,-14.7563
350000,0.56,0,0,0,-13.5904
400000,0.57,0,0,0,-12.44
450000,0.58,0,0,0,-11.3046
500000,0.59,0,0,0,-10.1838
550000,0.6,0,0,0,-9.07722
600000,0.61,0,0,0,-7.98435
650000,0.62,0,0,0,-6.90483
700000,0.63,0,0,0,-5.83829
750000,0.64,0,0,0,-4.78438
800000,0.65,0,0,0,-3.74274
850000,0.66,0,0,0,-2.71306
900000,0.67,0,0,0,-1.69501
950000,0.68,0,0,0,-0.688303
1000000,0.69,0,0,0,0.307369
1050000,0.7,0,0,0,1.29228
1100000,0.71,0,0,0,2.26669
1150000,0.72,0,0.657201,0.0351696,23.5656
1200000,0.73,0,0.601169,0.0925726,23.0087
1250000,0.74,0,0.558582,0.135168,22.794
1300000,0.75,0,0.517452,0.1763,22.5882
1350000,0.76,0,0.477628,0.216122,22.3888
1400000,0.77,0,0.439085,0.254665,22.1963
1450000,0.78,0,0.401724,0.292026,22.0095
1500000,0.79,0,0.365504,0.328246,21.8284
1550000,0.8,0,0.330374,0.363377,21.6527
1600000,0.81,0,0.296283,0.397468,21.4823
1650000,0.82,0,0.263187,0.430565,21.3168
1700000,0.83,0,0.231029,0.462722,21.1558
1750000,0.84,0,0.199792,0.493959,20.9996
1800000,0.85,0,0.169436,0.524314,20.8482
1850000,0.86,0,0.139905,0.553845,20.7006
1900000,0.87,0,0.111165,0.582584,20.5567
1950000,0.88,0,0.0832049,0.610546,20.417
2000000,0.89,0,0.0560311,0.637728,20.2827
2050000,0.9,0,0.0298187,0.663989,20.1612
2100000,0.91,0,0.00756621,0.686793,20.1632
2150000,0.92,0,0.00139839,0.695496,20.7392
2200000,0.93,0,0,0.698979,21.4827
2250000,0.94,0,0,0.699944,22.2712
2300000,0.95,0,0,0.699696,23.0533
2350000,0.96,0,0,0.698255,23.8294
2400000,0.97,0.00257459,0,0.693376,24.5035
2450000,0.98,0.0113635,0,0.682405,24.9387
2500000,0.99,0.0342562,0,0.65948,24.8325
2550000,1,0.0570357,0,0.63672,24.713
2600000,1.01,0.0790999,0,0.614651,24.6036
2650000,1.02,0.100688,0,0.593062,24.4957
2700000,1.03,0.121794,0,0.571955,24.3902
2750000,1.04,0.142441,0,0.551309,24.2867
2800000,1.05,0.162629,0,0.531121,24.1859
2850000,1.06,0.18238,0,0.51137,24.0871
2900000,1.07,0.2017,0,0.492051,23.9908
2950000,1.08,0.22062,0,0.473131,23.8963
3000000,1.09,0.239143,0,0.454608,23.8037
3050000,1.1,0.25729,0,0.436462,23.7126
3100000,1.11,0.275057,0,0.418695,23.6238
3150000,1.12,0.292463,0,0.401288,23.5368
3200000,1.13,0.30952,0,0.384231,23.4515
3250000,1.14,0.326238,0,0.367513,23.368
3300000,1.15,0.342626,0,0.351124,23.286
3350000,1.16,0.358695,0,0.335055,23.2057
3400000,1.17,0.374455,0,0.319296,23.1269
3450000,1.18,0.389913,0,0.303837,23.0496
3500000,1.19,0.405078,0,0.288671,22.9737
3550000,1.2,0.419959,0,0.27379,22.8993
3600000,1.21,0.434564,0,0.259185,22.8263
3650000,1.22,0.448894,0,0.244857,22.7549
3700000,1.23,0.462968,0,0.230782,22.6845
3750000,1.24,0.476788,0,0.216962,22.6154
3800000,1.25,0.490361,0,0.203389,22.5475
3850000,1.26,0.5037,0,0.190051,22.4805
3900000,1.27,0.516798,0,0.176953,22.415
3950000,1.28,0.529668,0,0.164083,22.3507
4000000,1.29,0.542315,0,0.151435,22.2874
4050000,1.3,0.554747,0,0.139004,22.2252
4100000,1.31,0.566967,0,0.126784,22.1641
4150000,1.32,0.578975,0,0.114777,22.1043
4200000,1.33,0.590788,0,0.102963,22.0452
4250000,1.34,0.602407,0,0.0913443,21.9871
4300000,1.35,0.613835,0,0.0799159,21.9299
4350000,1.36,0.625082,0,0.0686672,21.8733
4400000,1.37,0.636158,0,0.0575868,21.8171
4450000,1.38,0.647075,0,0.0466604,21.7608
4500000,1.39,0.657848,0,0.0358721,21.7038
4550000,1.4,0.668471,0,0.025227,21.6465
4600000,1.41,0.678793,0,0.0149183,21.5975
4650000,1.42,0.687395,0,0.00672194,21.6369
4700000,1.43,0.692285,0,0.00306291,21.879
4750000,1.44,0.695483,0,0.00125977,22.2124
4800000,1.45,0.697984,0,0,22.5818
4850000,1.46,0.69906,0,0,23.0289
4900000,1.47,0.699745,0,0,23.4955
4950000,1.48,0.699996,0,0,23.9841
5000000,1.49,0.699753,0,0,24.4984
5050000,1.5,0.698937,0,0,25.043
5100000,1.51,0.697428,0,0,25.625
5150000,1.52,0.695043,0,0,26.2551
5200000,1.53,0.691477,0,0,26.9506
5250000,1.54,0.686153,0,0,27.7447
5300000,1.55,0.677686,0,0,28.7159
5350000,1.56,0,0,0,62.1353
5400000,1.57,0,0,0,62.6711
5450000,1.58,0,0,0,63.2044
5500000,1.59,0,0,0,63.7351
5550000,1.6,0,0,0,64.2633
5600000,1.61,0,0,0,64.789
5650000,1.62,0,0,0,65.3123
5700000,1.63,0,0,0,65.8332
5750000,1.64,0,0,0,66.3517
5800000,1.65,0,0,0,66.8678
5850000,1.66,0,0,0,67.3816
5900000,1.67,0,0,0,67.8931
5950000,1.68,0,0,0,68.4023
6000000,1.69,0,0,0,68.9092
6050000,1.7,0,0,0,69.4138
6100000,1.69,0,0,0,68.9092
6150000,1.68,0,0,0,68.4023
6200000,1.67,0,0,0,67.8931
6250000,1.66,0,0,0,67.3816
6300000,1.65,0,0,0,66.8678
6350000,1.64,0,0,0,66.3517
6400000,1.63,0,0,0,65.8332
6450000,1.62,0,0,0,65.3123
6500000,1.61,0,0,0,64.789
6550000,1.6,0,0,0,64.2633
6600000,1.59,0,0,0,63.7351
6650000,1.58,0,0,0,63.2044
6700000,1.57,0,0,0,62.6711
6750000,1.56,0,0,0,62.1353
6800000,1.55,0,0,0,61.597
6850000,1.54,0,0,0,61.056
6900000,1.53,0,0,0,60.5124
6950000,1.52,0,0,0,59.9661
7000000,1.51,0,0,0,59.4171
7050000,1.5,0,0,0,58.8653
7100000,1.49,0,0,0,58.3108
7150000,1.48,0,0,0,57.7535
7200000,1.47,0,0,0,57.1934
7250000,1.46,0,0,0,56.6304
7300000,1.45,0,0,0,56.0645
7350000,1.44,0,0,0,55.4957
7400000,1.43,0,0,0,54.9239
7450000,1.42,0,0,0,54.3491
7500000,1.41,0,0,0,53.7713
7550000,1.4,0,0,0,53.1903
7600000,1.39,0,0,0,52.6063
7650000,1.38,0,0,0,52.0191
7700000,1.37,0,0,0,51.4287
7750000,1.36,0,0,0,50.835
7800000,1.35,0,0,0,50.2381
7850000,1.34,0,0,0,49.6378
7900000,1.33,0,0,0,49.0342
7950000,1.32,0,0,0,48.4272
8000000,1.31,0,0,0,47.8167
8050000,1.3,0,0,0,47.2026
8100000,1.29,0,0,0,46.5851
8150000,1.28,0,0,0,45.9639
8200000,1.27,0,0,0,45.3391
8250000,1.26,0,0,0,44.7106
8300000,1.25,0,0,0,44.0783
8350000,1.24,0,0,0,43.4423
8400000,1.23,0,0,0,42.8023
8450000,1.22,0.448907,0,0.244841,22.7543
8500000,1.21,0.434564,0,0.259185,22.8263
8550000,1.2,0.419959,0,0.27379,22.8993
8600000,1.19,0.405078,0,0.288671,22.9737
8650000,1.18,0.389913,0,0.303837,23.0496
8700000,1.17,0.374455,0,0.319296,23.1269
8750000,1.16,0.358695,0,0.335055,23.2057
8800000,1.15,0.342626,0,0.351124,23.286
8850000,1.14,0.326238,0,0.367513,23.368
8900000,1.13,0.30952,0,0.384231,23.4515
8950000,1.12,0.292463,0,0.401288,23.5368
9000000,1.11,0.275057,0,0.418695,23.6238
9050000,1.1,0.25729,0,0.436462,23.7126
9100000,1.09,0.239143,0,0.454608,23.8037
9150000,1.08,0.22062,0,0.473131,23.8963
9200000,1.07,0.2017,0,0.492051,23.9908
9250000,1.06,0.18238,0,0.51137,24.0871
9300000,1.05,0.162629,0,0.531121,24.1859
9350000,1.04,0.142441,0,0.551309,24.2867
9400000,1.03,0.121794,0,0.571955,24.3902
9450000,1.02,0.100688,0,0.593062,24.4957
9500000,1.01,0.0790999,0,0.614651,24.6036
9550000,1,0.0570421,0,0.636714,24.7127
9600000,0.99,0.0345957,0,0.659188,24.8197
9650000,0.98,0.0130001,0,0.681027,24.8774
9700000,0.97,0.00257574,0,0.693375,24.5035
9750000,0.96,0,0,0.698255,23.8294
9800000,0.95,0,0,0.699696,23.0533
9850000,0.94,0,0,0.699944,22.2712
9900000,0.93,0,0,0.698979,21.4827
9950000,0.92,0,0.00139836,0.695496,20.7392
10000000,0.91,0,0.00717511,0.687125,20.1489
10050000,0.9,0,0.0290419,0.664652,20.1332
10100000,0.89,0,0.0560102,0.637745,20.282
10150000,0.88,0,0.0832044,0.610546,20.417
10200000,0.87,0,0.111165,0.582584,20.5567
10250000,0.86,0,0.139905,0.553845,20.7006
10300000,0.85,0,0.169436,0.524314,20.8482
10350000,0.84,0,0.199792,0.493959,20.9996
10400000,0.83,0,0.231029,0.462722,21.1558
10450000,0.82,0,0.263187,0.430565,21.3168
10500000,0.81,0,0.296283,0.397468,21.4823
10550000,0.8,0,0.330374,0.363377,21.6527
10600000,0.79,0,0.365504,0.328246,21.8284
10650000,0.78,0,0.401724,0.292026,22.0095
10700000,0.77,0,0.439085,0.254665,22.1963
10750000,0.76,0,0.477628,0.216122,22.3888
10800000,0.75,0,0.517452,0.1763,22.5882
10850000,0.74,0,0.558582,0.135168,22.794
10900000,0.73,0,0.601139,0.0926052,23.0078
10950000,0.72,0,0.645146,0.0485938,23.2287
11000000,0.71,0,0.6848,0.00957798,23.2949
11050000,0.7,0,0.697448,0,22.5931
11100000,0.69,0,0.69965,0,21.5918
11150000,0.68,0,0.699773,0,20.522
11200000,0.67,0,0.697422,0,19.3732
11250000,0.66,0,0.691929,0,18.1276
11300000,0.65,0,0.682046,0,16.752
11350000,0.64,0,0.665056,0,15.1729
11400000,0.63,0,0.632392,0,13.157
11450000,0.62,0,0,0,-6.90483
11500000,0.61,0,0,0,-7.98435
11550000,0.6,0,0,0,-9.07722
11600000,0.59,0,0,0,-10.1838
11650000,0.58,0,0,0,-11.3046
11700000,0.57,0,0,0,-12.44
11750000,0.56,0,0,0,-13.5904
11800000,0.55,0,0,0,-14.7563
11850000,0.54,0,0,0,-15.9382
11900000,0.53,0,0,0,-17.1367
11950000,0.52,0,0,0,-18.3522
12000000,0.51,0,0,0,-19.5854
12050000,0.5,0,0,0,-20.8369
